; MKO consortium cold L' filter profile convolved with MK atmosphere
;  lambda microns  transmission %
;
          3.2004         -0.47434
           3.201        -0.266534
          3.2015        -0.328341
          3.2021        -0.242478
          3.2027        -0.216979
          3.2032        -0.193462
          3.2038        -0.156151
          3.2044        -0.010006
          3.2049         0.094389
          3.2055         0.156615
          3.2061           0.1039
          3.2066        -0.001641
          3.2072        -0.078504
          3.2078        -0.169276
          3.2083        -0.172368
          3.2089         0.051099
          3.2095         0.070775
            3.21        -0.158885
          3.2106        -0.147846
          3.2112        -0.087209
          3.2117         -0.11151
          3.2123        -0.141245
          3.2129        -0.163312
          3.2134        -0.213502
           3.214        -0.217635
          3.2146         -0.07243
          3.2151         0.050199
          3.2157         0.067134
          3.2163         0.034589
          3.2169        -0.019455
          3.2174        -0.106773
           3.218        -0.150144
          3.2186        -0.151178
          3.2191        -0.185684
          3.2197         -0.13318
          3.2203        -0.141033
          3.2209        -0.294115
          3.2214        -0.261968
           3.222        -0.066976
          3.2226         0.047036
          3.2231         0.004022
          3.2237        -0.022926
          3.2243         0.010785
          3.2249        -0.030669
          3.2254        -0.091761
           3.226        -0.167612
          3.2266        -0.255447
          3.2272        -0.105342
          3.2277         0.140881
          3.2283         0.147046
          3.2289         0.011142
          3.2294        -0.061654
            3.23        -0.091296
          3.2306         0.008587
          3.2312         0.045479
          3.2317         -0.06547
          3.2323        -0.052227
          3.2329         0.064039
          3.2335         0.141569
          3.2341         0.311776
          3.2346         0.218749
          3.2352        -0.000184
          3.2358        -0.128232
          3.2364         -0.12431
          3.2369        -0.008488
          3.2375        -0.007157
          3.2381         0.095567
          3.2387         0.148845
          3.2392        -0.021327
          3.2398        -0.109279
          3.2404        -0.034532
           3.241         0.176793
          3.2416         0.187643
          3.2421         0.237944
          3.2427         0.340658
          3.2433         0.219077
          3.2439         0.075248
          3.2445         0.011886
           3.245         0.017964
          3.2456         0.046917
          3.2462         0.003714
          3.2468         0.005131
          3.2474         0.168543
          3.2479         0.298452
          3.2485         0.298129
          3.2491         0.233192
          3.2497         0.203938
          3.2503          0.20288
          3.2508         0.127705
          3.2514         0.046846
           3.252         0.119195
          3.2526         0.308975
          3.2532         0.351255
          3.2538         0.225606
          3.2543         0.239557
          3.2549         0.337056
          3.2555         0.392396
          3.2561         0.437632
          3.2567         0.353655
          3.2573         0.201445
          3.2578         0.272622
          3.2584         0.317892
           3.259          0.10562
          3.2596         0.002563
          3.2602        -0.033139
          3.2608         0.062936
          3.2614         0.173877
          3.2619         0.139036
          3.2625         0.021912
          3.2631         0.006892
          3.2637        -0.057933
          3.2643        -0.159756
          3.2649        -0.171255
          3.2655        -0.221663
          3.2661        -0.167108
          3.2666        -0.066724
          3.2672        -0.038068
          3.2678        -0.016915
          3.2684          0.05952
           3.269         0.052693
          3.2696        -0.115449
          3.2702        -0.097789
          3.2708          0.05452
          3.2714         0.060763
          3.2719         0.035638
          3.2725         0.122198
          3.2731         0.185986
          3.2737         0.102105
          3.2743         0.038697
          3.2749         0.148035
          3.2755         0.224464
          3.2761         0.198628
          3.2767         0.305317
          3.2773          0.34054
          3.2778         0.083691
          3.2784        -0.081119
           3.279         0.101525
          3.2796         0.281796
          3.2802         0.384031
          3.2808         0.431303
          3.2814         0.357633
           3.282         0.230076
          3.2826         0.109615
          3.2832        -0.029704
          3.2838        -0.033689
          3.2844          0.14428
           3.285          0.20786
          3.2856           0.0793
          3.2862         0.068574
          3.2868         0.234999
          3.2873         0.359721
          3.2879         0.463719
          3.2885         0.635018
          3.2891          0.60092
          3.2897         0.377922
          3.2903         0.341398
          3.2909         0.327503
          3.2915         0.287572
          3.2921         0.297556
          3.2927          0.24075
          3.2933          0.29688
          3.2939          0.40297
          3.2945          0.38667
          3.2951         0.242197
          3.2957         0.215093
          3.2963         0.233237
          3.2969         0.190771
          3.2975         0.277249
          3.2981         0.393118
          3.2987         0.473836
          3.2993         0.407806
          3.2999         0.289404
          3.3005         0.311512
          3.3011          0.31512
          3.3017         0.403532
          3.3023         0.461672
          3.3029         0.453202
          3.3035         0.727158
          3.3041         0.621739
          3.3047         0.367078
          3.3053         0.603707
          3.3059         0.882644
          3.3065         0.949407
          3.3071         0.963695
          3.3077          0.89443
          3.3083         0.706134
          3.3089         0.588717
          3.3095         0.614105
          3.3101         0.610598
          3.3107         0.637047
          3.3113         0.581702
          3.3119         0.413347
          3.3125         0.316985
          3.3131         0.193743
          3.3138         0.097951
          3.3144         0.092556
           3.315         0.091758
          3.3156         0.086397
          3.3162          0.10697
          3.3168         0.111338
          3.3174         0.103494
           3.318         0.158651
          3.3186         0.271682
          3.3192         0.322445
          3.3198         0.357371
          3.3204         0.482349
           3.321         0.577895
          3.3216         0.595601
          3.3222         0.614789
          3.3228         0.752973
          3.3235         0.932556
          3.3241         0.825366
          3.3247         0.815656
          3.3253          1.11493
          3.3259          1.25248
          3.3265          1.25385
          3.3271          1.16278
          3.3277         0.942334
          3.3283         0.874627
          3.3289         0.898318
          3.3296         0.844644
          3.3302         0.958609
          3.3308         0.921314
          3.3314         0.959479
           3.332          1.22086
          3.3326          1.10336
          3.3332          1.05985
          3.3338          1.25687
          3.3344          1.49137
          3.3351          1.57466
          3.3357          1.35786
          3.3363          1.46286
          3.3369          1.43165
          3.3375          1.37296
          3.3381          1.56392
          3.3387          1.62479
          3.3394          1.57793
            3.34          1.46576
          3.3406          1.38776
          3.3412          1.54743
          3.3418          1.62852
          3.3424          1.60878
           3.343          1.62309
          3.3437          1.66773
          3.3443           1.5845
          3.3449           1.4648
          3.3455          1.52384
          3.3461          1.66273
          3.3467          1.76528
          3.3474          1.88922
           3.348          1.93399
          3.3486          2.05854
          3.3492          2.17384
          3.3498          2.09499
          3.3504          1.99588
          3.3511          2.08007
          3.3517          2.29741
          3.3523          2.49087
          3.3529          2.48202
          3.3535          2.31693
          3.3542          2.14631
          3.3548          1.98216
          3.3554          1.79895
           3.356          1.84098
          3.3566          1.82825
          3.3573          1.72114
          3.3579          1.66335
          3.3585          1.83469
          3.3591          2.24121
          3.3597          2.59409
          3.3604           2.6571
           3.361          2.66733
          3.3616          2.69909
          3.3622           2.6415
          3.3629          2.59812
          3.3635          2.63744
          3.3641          2.82058
          3.3647          2.97011
          3.3654          3.01727
           3.366          2.90258
          3.3666          3.08207
          3.3672          3.29952
          3.3679           2.8895
          3.3685          2.48714
          3.3691          2.50585
          3.3697          2.74154
          3.3704            3.171
           3.371          3.35164
          3.3716           3.3751
          3.3722          3.46392
          3.3729          3.79702
          3.3735          4.26354
          3.3741          4.43987
          3.3747          4.52822
          3.3754          4.40641
           3.376           4.1865
          3.3766          4.32029
          3.3773          4.43137
          3.3779          4.22131
          3.3785          4.00235
          3.3791          3.89253
          3.3798          3.85095
          3.3804          3.99363
           3.381          4.12497
          3.3817          4.20469
          3.3823          4.33885
          3.3829          4.70928
          3.3835           5.0222
          3.3842          5.45343
          3.3848          5.92105
          3.3854          6.08023
          3.3861          6.08748
          3.3867          6.47352
          3.3873          6.95469
           3.388          7.30869
          3.3886          7.86982
          3.3892          8.05034
          3.3899          7.61685
          3.3905          6.96651
          3.3911          6.49751
          3.3918          6.17836
          3.3924          6.33242
           3.393          6.91661
          3.3937          7.76817
          3.3943          8.82536
          3.3949          9.65379
          3.3956          10.4906
          3.3962          10.9951
          3.3968          11.4863
          3.3975          11.7702
          3.3981          12.0991
          3.3988          12.5054
          3.3994          13.0072
             3.4          13.6681
          3.4007          14.0799
          3.4013          14.2787
          3.4019          13.7841
          3.4026          12.8375
          3.4032          12.1727
          3.4038          11.6877
          3.4045          11.6592
          3.4051          12.7013
          3.4058          14.7084
          3.4064          15.9862
           3.407          17.4294
          3.4077          18.8517
          3.4083          19.5771
           3.409          20.6578
          3.4096           22.061
          3.4102          23.0752
          3.4109          23.9572
          3.4115          24.9367
          3.4122          25.8675
          3.4128          26.7738
          3.4135          26.7871
          3.4141          26.4159
          3.4147          25.2273
          3.4154          23.9106
           3.416          23.9992
          3.4167          24.7258
          3.4173          27.8605
          3.4179          31.1419
          3.4186          35.1435
          3.4192          37.8471
          3.4199          40.1356
          3.4205          41.5362
          3.4212           43.163
          3.4218          44.4252
          3.4225          45.2472
          3.4231          46.1339
          3.4238          46.9931
          3.4244          47.5418
           3.425          47.4682
          3.4257          46.5745
          3.4263          45.6088
           3.427          43.8629
          3.4276          43.7203
          3.4283          44.0662
          3.4289          46.5211
          3.4296           49.813
          3.4302          54.2437
          3.4309          58.7734
          3.4315          62.6159
          3.4322           65.329
          3.4328          67.1299
          3.4335          68.4516
          3.4341          69.8576
          3.4348            70.87
          3.4354          71.5395
          3.4361          72.4322
          3.4367           73.181
          3.4374          73.4026
           3.438          72.5323
          3.4387          70.2552
          3.4393          68.2434
            3.44          65.9027
          3.4406          67.1092
          3.4413          68.6173
          3.4419          71.9279
          3.4426          75.8532
          3.4432          79.4617
          3.4439          81.4241
          3.4445          82.3519
          3.4452          82.7448
          3.4458          82.5223
          3.4465          82.8424
          3.4472          83.3719
          3.4478          83.6116
          3.4485          83.7753
          3.4491          84.1526
          3.4498          84.3114
          3.4504          84.0993
          3.4511           82.969
          3.4517          81.4023
          3.4524          79.6077
          3.4531          77.8086
          3.4537          77.8613
          3.4544          78.7101
           3.455          80.8828
          3.4557          83.5879
          3.4563          86.0599
           3.457          87.7965
          3.4577           89.047
          3.4583           89.822
           3.459          90.3533
          3.4596          90.0303
          3.4603          89.6903
           3.461          89.4351
          3.4616          88.9751
          3.4623          88.1562
          3.4629          87.2703
          3.4636          85.9983
          3.4643          84.5262
          3.4649          83.1568
          3.4656          82.9381
          3.4662          83.0365
          3.4669          83.9305
          3.4676          85.1799
          3.4682          86.5447
          3.4689          87.7615
          3.4696          89.1012
          3.4702          89.7981
          3.4709          89.7554
          3.4715          89.1306
          3.4722          88.6202
          3.4729          88.1346
          3.4735          87.7951
          3.4742          87.5353
          3.4749          87.2509
          3.4755          86.9671
          3.4762          86.4346
          3.4769          85.9334
          3.4775          86.1218
          3.4782          85.8797
          3.4789          85.9817
          3.4795          86.7699
          3.4802          87.7571
          3.4809          88.6268
          3.4815          89.1923
          3.4822          89.6686
          3.4829          89.9019
          3.4835          89.7429
          3.4842          89.4687
          3.4849           89.327
          3.4855          89.1193
          3.4862          88.5185
          3.4869          87.9761
          3.4876          87.4736
          3.4882          87.2542
          3.4889          87.2005
          3.4896          87.3589
          3.4902          87.4416
          3.4909          87.9768
          3.4916          88.8455
          3.4923           89.078
          3.4929          89.2958
          3.4936           89.854
          3.4943          90.3631
          3.4949          90.7958
          3.4956          91.0707
          3.4963          90.9164
           3.497          90.3361
          3.4976           90.035
          3.4983          89.6764
           3.499          89.3593
          3.4997          89.3775
          3.5003           89.018
           3.501          88.7477
          3.5017          88.5419
          3.5024          88.3429
           3.503          88.4903
          3.5037          88.6703
          3.5044          88.7894
          3.5051          89.0418
          3.5057          89.4346
          3.5064          89.8291
          3.5071          89.7967
          3.5078          89.4788
          3.5085          88.9534
          3.5091          88.4877
          3.5098          87.8155
          3.5105          87.7071
          3.5112          87.6132
          3.5118           87.523
          3.5125           87.529
          3.5132          88.0108
          3.5139          88.6176
          3.5146          88.8331
          3.5152          88.7478
          3.5159          88.4781
          3.5166          88.3781
          3.5173          88.5568
           3.518          88.3744
          3.5187          88.0225
          3.5193          88.0848
            3.52          88.1418
          3.5207          87.9624
          3.5214          87.6641
          3.5221           87.386
          3.5227          87.2474
          3.5234          87.5796
          3.5241          87.3992
          3.5248          86.7518
          3.5255          86.2808
          3.5262          86.0324
          3.5269          85.6291
          3.5275          85.2342
          3.5282            85.12
          3.5289          85.1558
          3.5296          85.6042
          3.5303          85.8059
           3.531          85.3755
          3.5317          84.7172
          3.5323          84.1842
           3.533          83.2318
          3.5337          82.4104
          3.5344           81.599
          3.5351          80.9282
          3.5358          80.3509
          3.5365          80.1541
          3.5372          80.4664
          3.5379          80.8476
          3.5385          80.9502
          3.5392          80.5423
          3.5399          80.1833
          3.5406          80.0907
          3.5413          80.1151
           3.542           80.119
          3.5427          80.2834
          3.5434           80.916
          3.5441          81.5906
          3.5448          81.6741
          3.5455          81.2732
          3.5461          81.3325
          3.5468          81.6706
          3.5475          81.7786
          3.5482          82.3097
          3.5489          82.9795
          3.5496          83.6504
          3.5503          84.1771
           3.551          84.2314
          3.5517          83.6485
          3.5524          83.1854
          3.5531          82.7364
          3.5538          82.5313
          3.5545          82.7772
          3.5552          82.9543
          3.5559          83.1262
          3.5566          83.8525
          3.5573          84.7366
           3.558          84.5676
          3.5587          84.5078
          3.5594          84.5013
          3.5601          84.4212
          3.5608          84.8764
          3.5615          85.2218
          3.5622          85.4291
          3.5629           85.416
          3.5636          85.2539
          3.5643          84.7023
          3.5649          83.9637
          3.5657          83.0525
          3.5664          82.5037
          3.5671          82.3098
          3.5678          82.1495
          3.5685          82.4381
          3.5692           82.879
          3.5699          83.2885
          3.5706          83.4771
          3.5713          83.5437
           3.572          83.2224
          3.5727           82.863
          3.5734          82.6889
          3.5741           82.743
          3.5748          83.3233
          3.5755          83.6256
          3.5762          84.3286
          3.5769          85.0118
          3.5776          85.5297
          3.5783          85.7898
           3.579          85.9169
          3.5797          85.4918
          3.5804          84.8384
          3.5811           84.354
          3.5818          84.3124
          3.5825          84.5685
          3.5832          84.7832
           3.584          84.7792
          3.5847            84.27
          3.5854          83.8657
          3.5861          84.0347
          3.5868           84.208
          3.5875          84.5441
          3.5882          84.9617
          3.5889          85.6716
          3.5896          86.2741
          3.5903          86.6081
           3.591          86.7846
          3.5918          86.5055
          3.5925          86.3938
          3.5932          86.2693
          3.5939          86.7638
          3.5946          87.5541
          3.5953          87.9071
           3.596          87.8704
          3.5967          88.1336
          3.5974          88.5782
          3.5982          88.6659
          3.5989          88.7846
          3.5996          88.9531
          3.6003          88.8706
           3.601          88.6501
          3.6017          88.7391
          3.6024          88.7369
          3.6032          88.6712
          3.6039          88.0939
          3.6046          87.2495
          3.6053          86.7834
           3.606          85.8991
          3.6067          85.4208
          3.6075          85.5358
          3.6082          86.7826
          3.6089            87.37
          3.6096          87.8909
          3.6103          88.4541
           3.611          88.6177
          3.6118          88.8718
          3.6125          89.0632
          3.6132          89.0718
          3.6139          88.8802
          3.6146          89.0497
          3.6154          89.4764
          3.6161          89.7619
          3.6168          89.9862
          3.6175          90.1385
          3.6182          90.1334
           3.619          90.1612
          3.6197          90.3589
          3.6204          90.6286
          3.6211          90.6073
          3.6219           90.533
          3.6226          90.5492
          3.6233          90.6436
           3.624          90.4776
          3.6247          89.7316
          3.6255          87.9382
          3.6262          86.9444
          3.6269          86.8336
          3.6276           87.697
          3.6284          88.5275
          3.6291          89.1755
          3.6298          89.7197
          3.6305          89.7712
          3.6313          90.4094
           3.632          90.8934
          3.6327          90.9977
          3.6335          90.9007
          3.6342          90.6977
          3.6349          90.2772
          3.6356          89.9671
          3.6364          90.4029
          3.6371          90.9015
          3.6378          91.4181
          3.6386           91.752
          3.6393          91.6533
            3.64          91.5989
          3.6407          91.7238
          3.6415          92.0152
          3.6422           91.837
          3.6429          91.8835
          3.6437          91.4096
          3.6444          90.3877
          3.6451          88.9845
          3.6459          87.7757
          3.6466          87.3129
          3.6473          87.4508
          3.6481          88.1008
          3.6488           88.701
          3.6495           89.674
          3.6503          90.4318
           3.651          91.2187
          3.6517          91.4785
          3.6525          91.4785
          3.6532          91.7306
          3.6539          91.9692
          3.6547          92.1184
          3.6554          92.3114
          3.6561          92.3351
          3.6569          92.2303
          3.6576          92.2713
          3.6583          92.4664
          3.6591          92.5494
          3.6598           92.397
          3.6606          92.0373
          3.6613          91.7416
           3.662          91.7815
          3.6628          91.7823
          3.6635           91.402
          3.6643          91.2821
           3.665          90.7226
          3.6657           89.653
          3.6665           88.359
          3.6672          87.6246
           3.668          88.0117
          3.6687          88.4848
          3.6694          89.5421
          3.6702           89.418
          3.6709          88.7788
          3.6717          88.0466
          3.6724          87.6536
          3.6732          87.8938
          3.6739          87.3676
          3.6746          87.0135
          3.6754          87.5822
          3.6761          88.1923
          3.6769          88.5816
          3.6776          89.0869
          3.6784          89.9419
          3.6791          90.2323
          3.6799          90.1916
          3.6806          90.3198
          3.6813          90.1129
          3.6821          90.2463
          3.6828          90.5039
          3.6836          90.3379
          3.6843          90.4653
          3.6851          90.3388
          3.6858          90.0314
          3.6866          89.4295
          3.6873          88.7863
          3.6881          88.6571
          3.6888          88.6441
          3.6896          89.3135
          3.6903          90.1038
          3.6911          90.7073
          3.6918          90.8017
          3.6926          90.5087
          3.6933          90.2368
          3.6941          90.1938
          3.6948          90.2932
          3.6956          90.2555
          3.6963          90.0177
          3.6971          90.0644
          3.6978          90.2914
          3.6986           90.351
          3.6994          90.4317
          3.7001          90.6508
          3.7009          91.0324
          3.7016          91.3464
          3.7024          91.2256
          3.7031           90.942
          3.7039          90.7348
          3.7046          90.0436
          3.7054          89.7118
          3.7062          89.5928
          3.7069          89.2607
          3.7077           89.278
          3.7084          89.2184
          3.7092          88.5916
          3.7099          88.3988
          3.7107          88.3619
          3.7115          88.4865
          3.7122          88.5532
           3.713          88.0789
          3.7137          88.0233
          3.7145          88.0585
          3.7153          88.0479
           3.716          88.2205
          3.7168           87.993
          3.7175          88.1477
          3.7183          88.8622
          3.7191          88.9753
          3.7198           89.073
          3.7206          89.3414
          3.7213          89.0143
          3.7221          88.4771
          3.7229          88.0027
          3.7236          88.0811
          3.7244          88.5987
          3.7252          88.5847
          3.7259          88.1248
          3.7267          87.4605
          3.7275          87.0136
          3.7282          86.8569
           3.729          86.6863
          3.7298           86.558
          3.7305          86.7348
          3.7313          86.5071
          3.7321          86.0942
          3.7328          86.1152
          3.7336          86.0464
          3.7344          86.1316
          3.7351          86.3159
          3.7359          86.4171
          3.7367          86.9018
          3.7374          87.0992
          3.7382          86.7201
           3.739          86.3324
          3.7397           86.383
          3.7405          86.6133
          3.7413           86.877
          3.7421          87.2306
          3.7428          87.3925
          3.7436          87.4997
          3.7444          87.6772
          3.7451          87.8627
          3.7459          87.7867
          3.7467          87.7844
          3.7475          87.4518
          3.7482          87.1355
           3.749          87.0808
          3.7498          86.7912
          3.7506          86.8036
          3.7513          86.9619
          3.7521          86.8418
          3.7529          86.9024
          3.7537          86.7306
          3.7544          86.3597
          3.7552           86.432
           3.756          86.8376
          3.7568          87.0003
          3.7576          86.8559
          3.7583          86.8013
          3.7591          86.7434
          3.7599          86.6767
          3.7607          86.9214
          3.7614          87.2233
          3.7622           86.579
           3.763          86.1429
          3.7638          86.4025
          3.7646          86.4457
          3.7653          86.3098
          3.7661          86.6149
          3.7669          87.1426
          3.7677          87.8783
          3.7685          88.0482
          3.7693          87.6944
            3.77          87.7199
          3.7708          87.5498
          3.7716          87.5255
          3.7724          87.6973
          3.7732          87.8081
           3.774          88.0593
          3.7747          88.0721
          3.7755          88.2707
          3.7763          88.5883
          3.7771          88.4785
          3.7779          88.1669
          3.7787          87.8791
          3.7795          87.9447
          3.7802           88.065
           3.781          87.8902
          3.7818          87.5877
          3.7826          87.5344
          3.7834          87.8024
          3.7842          88.2049
           3.785          88.4092
          3.7858          88.4576
          3.7866          88.3015
          3.7873          87.9412
          3.7881          87.5067
          3.7889          86.9443
          3.7897          86.6307
          3.7905          86.3062
          3.7913          86.4437
          3.7921          86.7541
          3.7929          86.9762
          3.7937          87.2091
          3.7945          87.5011
          3.7953          87.4952
          3.7961          87.4034
          3.7968          87.9561
          3.7976          88.0825
          3.7984          87.8041
          3.7992          87.7301
             3.8          88.0315
          3.8008          88.2663
          3.8016          87.9531
          3.8024          87.6483
          3.8032          87.5293
           3.804          87.9115
          3.8048          87.8524
          3.8056          87.7279
          3.8064          87.8662
          3.8072            88.27
           3.808          88.4648
          3.8088          87.9471
          3.8096          87.7103
          3.8104           87.417
          3.8112           87.372
           3.812          87.5128
          3.8128          87.3465
          3.8136          87.1294
          3.8144          87.2987
          3.8152           87.771
           3.816          87.9718
          3.8168           88.164
          3.8176          88.2659
          3.8184          88.1887
          3.8192          88.1532
            3.82          88.0402
          3.8208           87.945
          3.8216          88.3303
          3.8224          89.0153
          3.8232          89.3002
           3.824          89.4496
          3.8248          89.5461
          3.8257           89.384
          3.8265          89.2833
          3.8273           89.363
          3.8281          89.4883
          3.8289          89.4973
          3.8297          89.3372
          3.8305          89.0633
          3.8313          89.0394
          3.8321          88.8979
          3.8329          88.3588
          3.8337           87.846
          3.8345          87.5961
          3.8354          87.5841
          3.8362           87.467
           3.837          87.5508
          3.8378          87.3706
          3.8386          87.0687
          3.8394          87.1994
          3.8402          87.3553
           3.841          87.5087
          3.8418          87.5157
          3.8427          87.4278
          3.8435          87.4328
          3.8443          87.2142
          3.8451          87.1466
          3.8459          86.9383
          3.8467          86.4961
          3.8475          86.1882
          3.8484          86.6553
          3.8492          87.1225
            3.85          87.1834
          3.8508          87.2337
          3.8516          87.4111
          3.8524          87.4854
          3.8533          87.4003
          3.8541          87.1758
          3.8549          87.1797
          3.8557          86.9701
          3.8565          86.5067
          3.8574          86.3484
          3.8582          86.3847
           3.859           86.596
          3.8598          86.4696
          3.8606           86.306
          3.8615          86.2798
          3.8623          85.9384
          3.8631          85.5292
          3.8639          85.1672
          3.8647          84.8875
          3.8656          84.5117
          3.8664           84.165
          3.8672           83.776
           3.868           83.411
          3.8689          83.3454
          3.8697          83.4803
          3.8705          83.3334
          3.8713          82.8758
          3.8722          82.3483
           3.873          81.8605
          3.8738          81.5045
          3.8746          81.2898
          3.8755          80.7735
          3.8763          80.2249
          3.8771          80.2535
           3.878          80.6171
          3.8788          80.6153
          3.8796          80.2829
          3.8804          79.7642
          3.8813          79.6202
          3.8821          79.8193
          3.8829          79.8306
          3.8838          79.6534
          3.8846          79.4211
          3.8854          79.4329
          3.8863          79.8596
          3.8871          80.2034
          3.8879          80.4348
          3.8888          80.0538
          3.8896          79.9077
          3.8904          80.6897
          3.8913          81.4104
          3.8921          81.7206
          3.8929          81.8789
          3.8938          82.1024
          3.8946          82.2256
          3.8954          82.4333
          3.8963          83.2618
          3.8971          84.1286
          3.8979          85.0512
          3.8988            85.72
          3.8996           86.058
          3.9005          86.3687
          3.9013          86.1235
          3.9021          86.1253
           3.903          85.6521
          3.9038          84.8344
          3.9047          84.4659
          3.9055          84.6241
          3.9063          84.3412
          3.9072          83.8926
           3.908          83.6726
          3.9089          82.9993
          3.9097          82.2342
          3.9105          81.3089
          3.9114          80.6968
          3.9122          80.3529
          3.9131          80.4554
          3.9139          81.0281
          3.9148          81.8819
          3.9156          82.3658
          3.9164           82.251
          3.9173          82.0002
          3.9181          82.0026
           3.919          82.2737
          3.9198           82.218
          3.9207           81.908
          3.9215          81.8692
          3.9224          81.9124
          3.9232          81.8658
          3.9241           82.005
          3.9249          82.2454
          3.9258          82.1874
          3.9266          82.2203
          3.9275          82.5306
          3.9283          82.2896
          3.9292          82.1056
            3.93          82.4622
          3.9309          82.6369
          3.9317          82.5802
          3.9326           82.597
          3.9334          82.7904
          3.9343          83.2495
          3.9351          83.1774
           3.936          83.2095
          3.9368          83.6582
          3.9377          83.5127
          3.9385           83.222
          3.9394          83.1057
          3.9402           82.944
          3.9411          83.1404
           3.942          83.4603
          3.9428          83.7138
          3.9437          83.4874
          3.9445          83.7489
          3.9454          84.0182
          3.9462           83.679
          3.9471          83.5515
           3.948          83.6989
          3.9488          84.0117
          3.9497          84.1043
          3.9505          83.9825
          3.9514          83.7876
          3.9523           83.602
          3.9531           83.434
           3.954          83.1653
          3.9548          83.4921
          3.9557          83.9874
          3.9566          83.8995
          3.9574          83.4736
          3.9583          83.3763
          3.9592          83.2618
            3.96          82.9789
          3.9609          83.0001
          3.9617          83.3182
          3.9626          83.4809
          3.9635          83.3805
          3.9643          83.3867
          3.9652          83.5118
          3.9661          83.3693
          3.9669          82.8369
          3.9678          82.2219
          3.9687          82.0723
          3.9695          82.3086
          3.9704          82.4748
          3.9713          82.4522
          3.9722          82.0964
           3.973           81.644
          3.9739          81.2847
          3.9748          81.0661
          3.9756          80.9018
          3.9765           80.634
          3.9774           80.412
          3.9782          80.1308
          3.9791           79.809
            3.98          79.8451
          3.9809          79.9717
          3.9817          80.1854
          3.9826          80.3292
          3.9835          80.3401
          3.9844          80.2142
          3.9852          79.8855
          3.9861          79.9642
           3.987          80.0848
          3.9879          79.3482
          3.9887          79.1608
          3.9896           79.389
          3.9905          79.3009
          3.9914          79.1257
          3.9922           79.083
          3.9931          78.7746
           3.994          78.6702
          3.9949          78.4728
          3.9958          77.8935
          3.9966          77.7536
          3.9975          77.7597
          3.9984          77.6565
          3.9993           77.639
          4.0002          77.6771
           4.001          77.5211
          4.0019          77.6374
          4.0028          77.5391
          4.0037          77.3556
          4.0046          77.2662
          4.0055          77.1383
          4.0063           76.901
          4.0072            76.44
          4.0081          76.3477
           4.009             76.4
          4.0099          76.3686
          4.0108          76.4495
          4.0117          76.4419
          4.0125          76.2598
          4.0134          76.0635
          4.0143          76.0652
          4.0152          76.1138
          4.0161          76.1008
           4.017          76.0872
          4.0179          76.1193
          4.0188          75.8606
          4.0196           75.485
          4.0205          75.4406
          4.0214          75.2956
          4.0223          75.0633
          4.0232           75.162
          4.0241          75.1992
           4.025          75.0523
          4.0259          75.0129
          4.0268          75.1567
          4.0277          75.2281
          4.0286          75.2816
          4.0295          75.2133
          4.0304          74.9552
          4.0313          74.5604
          4.0321          74.4093
           4.033          74.3957
          4.0339          73.9662
          4.0348          73.7628
          4.0357          73.4986
          4.0366          73.6052
          4.0375          73.7505
          4.0384          73.6281
          4.0393          73.5549
          4.0402          73.1553
          4.0411          72.7442
           4.042          72.5106
          4.0429          72.2118
          4.0438          71.9392
          4.0447          72.5189
          4.0456          72.7632
          4.0465          72.5476
          4.0474          72.7841
          4.0483          72.8669
          4.0492          73.0354
          4.0501          72.9695
           4.051          72.8326
          4.0519          72.7304
          4.0529          72.5594
          4.0538          72.3416
          4.0547          72.4332
          4.0556           72.891
          4.0565          72.9521
          4.0574          73.0154
          4.0583          73.1585
          4.0592          73.1086
          4.0601          73.0339
           4.061           73.043
          4.0619          72.8132
          4.0628          72.4716
          4.0637          72.5138
          4.0646          72.6493
          4.0656          72.4508
          4.0665          71.9539
          4.0674          71.5835
          4.0683          71.4683
          4.0692          71.3369
          4.0701          70.9801
           4.071           70.683
          4.0719          70.7428
          4.0729          70.4939
          4.0738          70.0206
          4.0747          69.5407
          4.0756          69.1237
          4.0765          68.9958
          4.0774          68.9846
          4.0783          68.6777
          4.0793          68.1877
          4.0802          67.6456
          4.0811          67.3254
           4.082          67.1971
          4.0829          66.5826
          4.0839          65.6469
          4.0848          65.3523
          4.0857           65.047
          4.0866          64.5199
          4.0875          64.0129
          4.0885          63.3774
          4.0894           63.019
          4.0903          62.7484
          4.0912          62.4102
          4.0921           61.975
          4.0931          61.0797
           4.094          60.0472
          4.0949           59.151
          4.0958          58.2955
          4.0968          57.6206
          4.0977          57.0077
          4.0986          56.3012
          4.0995          55.4025
          4.1005          54.4259
          4.1014          53.2565
          4.1023          52.3448
          4.1032          51.6698
          4.1042          50.7802
          4.1051          49.8413
           4.106          48.7384
           4.107           47.318
          4.1079          45.9726
          4.1088          44.7618
          4.1097          43.4336
          4.1107          42.1417
          4.1116           41.029
          4.1125          40.0762
          4.1135          39.0359
          4.1144          37.6859
          4.1153          36.2692
          4.1163          35.0505
          4.1172          34.0146
          4.1181          33.0081
          4.1191           31.922
            4.12          30.7355
          4.1209          29.3958
          4.1219           28.023
          4.1228          26.8081
          4.1237          25.6292
          4.1247          24.3796
          4.1256          23.2036
          4.1266          22.0764
          4.1275          21.0129
          4.1284          20.0213
          4.1294          19.1478
          4.1303          18.2711
          4.1313          17.2181
          4.1322          16.0855
          4.1331          15.1931
          4.1341          14.5046
           4.135          13.7067
           4.136          12.8391
          4.1369          12.0999
          4.1378          11.4537
          4.1388          10.7921
          4.1397          10.2853
          4.1407          9.79781
          4.1416          9.11282
          4.1426          8.58226
          4.1435          8.25647
          4.1445          7.72652
          4.1454          6.96752
          4.1464          6.31967
          4.1473          5.92099
          4.1482           5.4727
          4.1492          5.18086
          4.1501          5.07822
          4.1511          4.74477
           4.152          4.35228
           4.153          4.03608
          4.1539          3.71572
          4.1549          3.43366
          4.1558          3.17472
          4.1568           2.9768
          4.1577          2.81948
          4.1587          2.52183
          4.1597          2.22902
          4.1606          2.07451
          4.1616          1.99049
          4.1625          1.87061
          4.1635          1.69343
          4.1644          1.55758
          4.1654          1.45471
          4.1663          1.32131
          4.1673          1.17311
          4.1682          1.09088
          4.1692         0.978327
          4.1702         0.827674
          4.1711         0.754926
          4.1721         0.724756
           4.173         0.665602
           4.174         0.594582
           4.175         0.537973
          4.1759         0.477644
          4.1769         0.415679
          4.1778         0.376112
          4.1788         0.346122
          4.1798         0.307407
          4.1807         0.262786
          4.1817         0.232542
          4.1827         0.201927
          4.1836         0.154551
          4.1846         0.115083
          4.1855         0.088525
          4.1865         0.065062
          4.1875         0.043628
          4.1884         0.028812
          4.1894          0.02038
          4.1904         0.015679
          4.1913         0.008479
          4.1923         0.004817
          4.1933          0.00233
          4.1943         0.001059
          4.1952         0.000536
          4.1962          0.00019
          4.1972          7.1e-05
          4.1981          1.4e-05
          4.1991            4e-06
